Intensity	Volts (mv)	Volts err (mv)	current (A)
30	31.12	.05		.87
35	39.89	.05		.94
40	49.31	.05		1.00
45	59.83	.05		1.07	
50	69.73	.05		1.13
55	79.24	.05		1.18
60	89.45	.05		1.24
65	99.4	.1 		1.29		
70	110.5 	.1 		1.35
75 	121.4 	.1 		1.4
80	131.4 	.1 		1.45
85	141.6 	.1 		1.50
90	151.9 	.1		1.55
95	161.2 	.1 		1.59
100 170.5 	.1 		1.64