Intensity	Volts (mv)	Volts err (mv)	current (A)
30	.404	.005	.86
35	.515	.005	.93
40	.635	.005	1.00
45	.742	.005	1.06
50	.878	.005	1.12
55	.992	.005	1.18
60	1.118	.005	1.23
65	1.245	.005	1.29
70	1.38	.01		1.34
75 	1.49 	.01 	1.39
80	1.64	.01		1.45
85	1.76	.01		1.49
90	1.90	.01		1.54
95	2.05 	.01	 	1.59
100 2.18 	.01 	1.64