Intensity	Volts (mv)	Volts err (mv)	current (A)
30	.0596	.0005	.86
35	.0985	.0005	.93
40	.1491	.0005	1.00
45	.2209	.0005	1.06
50	.3001	.0005	1.14
55	.3829	.0005	1.18
60	.503	.001	1.24
65	.616	.001	1.29
70	.756	.001	1.34
75 	.901	.001	1.40
80	1.067	.001	1.45
85	1.232 	.001	1.50
90	1.429 	.001	1.54
95	1.619	.001	1.59
100 1.844	.001	1.64