Intensity	Volts (mv)	Volts err (mv)	current (A)
30	5.065 	.0005	.85
35	7.469	.0005	.93
40	10.07	.01		1.00
45	12.84	.01		1.07
50	15.39	.01		1.12
55	18.09	.02		1.18
60	21.53	.02		1.24
65	24.65	.02		1.29
70	28.13	.02		1.35
75 	31.81	.02		1.4
80	35.29	.02		1.45
85	39.11	.02		1.5
90	43.09	.02		1.55
95	47.41	.02		1.6
100 51.26	.02		1.65