Intensity	Voltage (mv)	Voltage err (mv)	current (A)
30	.175 	.005	.86
35	.205	.005	.92
40	.259 	.005	.99
45	.302	.005	1.06
50	.347 	.005	1.12
55	.389	.005	1.18
60	.433	.005	1.23
65	.476	.005	1.29
70	.523	.005	1.34
75 	.579	.005 	1.40
80	.617	.005	1.44
85	.672	.005	1.50
90	.715	.005	1.54	
95	.753	.005	1.59
100 .798	.005	1.64